[SUMMARY]
Software Information
Software Name:	UVProbe
Version:	2.43
Mode:	Normal Mode

Data Information
Data is:	Original
Analyst:	
Date/Time:	05/11/2021 13:27:47
Comments:	

Instrument Information
Instrument Name:	SolidSpec3700
Instrument Type:	SolidSpec-3700 Series
Model (S/N):	SolidSpec3700 ( A11085100264CZ )

[METHOD]
[Measurement Properties]
Wavelength Range (nm.):	230,00 to 2500,00
Scan Speed:	Medium
Sampling Interval:	2,0
Auto Sampling Interval:	Disabled
Scan Mode:	Single

[Sample Preparation Properties]
Weight:	
Volume:	
Dilution:	
Path Length:	
Additional Information:	

[Instrument Properties]
Instrument Type:	SolidSpec-3700 Series
Measuring Mode:	Reflectance
Slit Width:	8,0 nm
Time Constant:	1,0 sec.
Source Lamp:	Auto
Light Source Change Wavelength:	295,00 nm
Detector Unit:	Integral Sphere
Detector Change Wavelength:	900,00 nm  1650,00 nm
Grating Change Wavelength:	830,00 nm
S/R Exchange:	Inverse
Detector Lock:	Auto
Slit Program:	Normal
Beam Mode:	Double
Stair Correction:	Disable

[Attachment Properties]
Attachment:	X-Y Stage
Sequence File:	Positions.xys

[Operation]
Threshold:	0,0010000
Points:	4
InterPolate:	Disabled
Average:	Disabled

[DATA]
Wavelength	Data
230.0	6.310
232.0	6.390
234.0	6.507
236.0	6.690
238.0	6.796
240.0	6.892
242.0	6.933
244.0	6.970
246.0	6.974
248.0	6.946
250.0	6.919
252.0	6.863
254.0	6.812
256.0	6.755
258.0	6.725
260.0	6.666
262.0	6.583
264.0	6.501
266.0	6.415
268.0	6.336
270.0	6.271
272.0	6.231
274.0	6.209
276.0	6.197
278.0	6.181
280.0	6.199
282.0	6.226
284.0	6.303
286.0	6.416
288.0	6.512
290.0	6.604
292.0	6.659
294.0	6.867
296.0	6.956
298.0	6.838
300.0	6.808
302.0	7.195
304.0	7.771
306.0	7.599
308.0	7.499
310.0	7.123
312.0	7.044
314.0	6.852
316.0	7.324
318.0	7.475
320.0	7.585
322.0	7.174
324.0	7.261
326.0	7.166
328.0	7.074
330.0	7.117
332.0	7.052
334.0	7.117
336.0	7.171
338.0	7.159
340.0	7.179
342.0	7.147
344.0	7.251
346.0	7.382
348.0	7.503
350.0	7.658
352.0	7.829
354.0	8.053
356.0	8.341
358.0	8.686
360.0	9.104
362.0	9.598
364.0	10.133
366.0	10.643
368.0	11.156
370.0	11.684
372.0	12.254
374.0	12.828
376.0	13.369
378.0	13.961
380.0	14.556
382.0	15.192
384.0	15.798
386.0	16.392
388.0	16.995
390.0	17.577
392.0	18.192
394.0	18.795
396.0	19.399
398.0	19.977
400.0	20.560
402.0	21.156
404.0	21.764
406.0	22.371
408.0	22.944
410.0	23.503
412.0	24.037
414.0	24.622
416.0	25.202
418.0	25.789
420.0	26.329
422.0	26.842
424.0	27.343
426.0	27.844
428.0	28.352
430.0	28.857
432.0	29.388
434.0	29.911
436.0	30.443
438.0	30.945
440.0	31.438
442.0	31.932
444.0	32.484
446.0	33.033
448.0	33.599
450.0	34.153
452.0	34.724
454.0	35.297
456.0	35.876
458.0	36.472
460.0	37.061
462.0	37.642
464.0	38.231
466.0	38.834
468.0	39.423
470.0	40.022
472.0	40.640
474.0	41.332
476.0	42.068
478.0	42.826
480.0	43.542
482.0	44.267
484.0	44.996
486.0	45.748
488.0	46.468
490.0	47.169
492.0	47.893
494.0	48.641
496.0	49.422
498.0	50.166
500.0	50.943
502.0	51.685
504.0	52.484
506.0	53.224
508.0	54.025
510.0	54.754
512.0	55.472
514.0	56.147
516.0	56.861
518.0	57.564
520.0	58.268
522.0	58.931
524.0	59.576
526.0	60.188
528.0	60.800
530.0	61.451
532.0	62.086
534.0	62.669
536.0	63.225
538.0	63.742
540.0	64.229
542.0	64.732
544.0	65.191
546.0	65.688
548.0	66.129
550.0	66.579
552.0	67.021
554.0	67.433
556.0	67.859
558.0	68.254
560.0	68.618
562.0	68.967
564.0	69.277
566.0	69.636
568.0	69.964
570.0	70.284
572.0	70.592
574.0	70.887
576.0	71.233
578.0	71.567
580.0	71.883
582.0	72.189
584.0	72.394
586.0	72.641
588.0	72.867
590.0	73.131
592.0	73.422
594.0	73.692
596.0	73.972
598.0	74.197
600.0	74.423
602.0	74.664
604.0	74.868
606.0	75.119
608.0	75.340
610.0	75.609
612.0	75.845
614.0	76.095
616.0	76.307
618.0	76.482
620.0	76.638
622.0	76.841
624.0	77.031
626.0	77.256
628.0	77.463
630.0	77.712
632.0	77.927
634.0	78.132
636.0	78.298
638.0	78.451
640.0	78.598
642.0	78.771
644.0	78.976
646.0	79.153
648.0	79.358
650.0	79.549
652.0	79.719
654.0	79.882
656.0	80.005
658.0	80.143
660.0	80.255
662.0	80.392
664.0	80.546
666.0	80.652
668.0	80.844
670.0	81.053
672.0	81.297
674.0	81.454
676.0	81.607
678.0	81.771
680.0	81.917
682.0	82.031
684.0	82.157
686.0	82.280
688.0	82.415
690.0	82.546
692.0	82.734
694.0	82.954
696.0	83.092
698.0	83.145
700.0	83.161
702.0	83.226
704.0	83.286
706.0	83.346
708.0	83.492
710.0	83.594
712.0	83.824
714.0	83.994
716.0	84.269
718.0	84.390
720.0	84.528
722.0	84.592
724.0	84.796
726.0	84.808
728.0	84.994
730.0	84.994
732.0	85.157
734.0	85.266
736.0	85.373
738.0	85.514
740.0	85.678
742.0	85.889
744.0	86.029
746.0	86.034
748.0	86.175
750.0	86.288
752.0	86.436
754.0	86.448
756.0	86.572
758.0	86.673
760.0	86.846
762.0	86.954
764.0	87.224
766.0	87.421
768.0	87.596
770.0	87.626
772.0	87.622
774.0	87.694
776.0	87.697
778.0	87.799
780.0	87.840
782.0	87.957
784.0	87.979
786.0	87.990
788.0	88.022
790.0	88.083
792.0	88.271
794.0	88.422
796.0	88.667
798.0	88.794
800.0	88.870
802.0	88.783
804.0	88.729
806.0	88.647
808.0	88.742
810.0	88.771
812.0	88.860
814.0	88.981
816.0	89.168
818.0	89.367
820.0	89.489
822.0	89.455
824.0	89.585
826.0	89.615
828.0	89.740
830.0	89.603
832.0	89.566
834.0	89.438
836.0	89.435
838.0	89.345
840.0	89.308
842.0	89.191
844.0	89.231
846.0	89.194
848.0	89.057
850.0	88.638
852.0	88.358
854.0	88.207
856.0	88.205
858.0	88.098
860.0	87.854
862.0	87.529
864.0	87.061
866.0	86.650
868.0	86.404
870.0	86.562
872.0	86.664
874.0	86.856
876.0	86.928
878.0	87.272
880.0	88.001
882.0	88.523
884.0	89.020
886.0	89.272
888.0	89.174
890.0	89.426
892.0	89.309
894.0	90.093
896.0	89.713
898.0	89.047
900.0	87.040
902.0	85.705
904.0	84.692
906.0	84.644
908.0	84.632
910.0	84.729
912.0	84.879
914.0	85.103
916.0	85.276
918.0	85.407
920.0	85.559
922.0	85.668
924.0	85.831
926.0	85.932
928.0	86.046
930.0	86.093
932.0	86.151
934.0	86.227
936.0	86.265
938.0	86.295
940.0	86.315
942.0	86.321
944.0	86.371
946.0	86.346
948.0	86.372
950.0	86.306
952.0	86.267
954.0	86.206
956.0	86.184
958.0	86.152
960.0	86.175
962.0	86.242
964.0	86.306
966.0	86.356
968.0	86.419
970.0	86.523
972.0	86.570
974.0	86.600
976.0	86.580
978.0	86.625
980.0	86.572
982.0	86.574
984.0	86.538
986.0	86.520
988.0	86.495
990.0	86.453
992.0	86.394
994.0	86.310
996.0	86.224
998.0	86.193
1000.0	86.170
1002.0	86.150
1004.0	86.143
1006.0	86.132
1008.0	86.147
1010.0	86.161
1012.0	86.205
1014.0	86.264
1016.0	86.329
1018.0	86.423
1020.0	86.526
1022.0	86.635
1024.0	86.727
1026.0	86.795
1028.0	86.847
1030.0	86.862
1032.0	86.867
1034.0	86.870
1036.0	86.884
1038.0	86.903
1040.0	86.903
1042.0	86.879
1044.0	86.849
1046.0	86.826
1048.0	86.821
1050.0	86.835
1052.0	86.869
1054.0	86.903
1056.0	86.940
1058.0	86.978
1060.0	87.023
1062.0	87.067
1064.0	87.114
1066.0	87.178
1068.0	87.208
1070.0	87.261
1072.0	87.273
1074.0	87.317
1076.0	87.329
1078.0	87.349
1080.0	87.322
1082.0	87.260
1084.0	87.217
1086.0	87.162
1088.0	87.089
1090.0	86.989
1092.0	86.864
1094.0	86.736
1096.0	86.533
1098.0	86.294
1100.0	86.030
1102.0	85.720
1104.0	85.343
1106.0	84.807
1108.0	84.172
1110.0	83.284
1112.0	82.146
1114.0	80.663
1116.0	78.861
1118.0	76.676
1120.0	74.114
1122.0	71.165
1124.0	67.921
1126.0	64.615
1128.0	61.529
1130.0	59.041
1132.0	57.413
1134.0	56.957
1136.0	57.746
1138.0	59.621
1140.0	62.151
1142.0	64.926
1144.0	67.592
1146.0	70.029
1148.0	72.169
1150.0	74.046
1152.0	75.680
1154.0	77.048
1156.0	78.105
1158.0	78.842
1160.0	79.279
1162.0	79.471
1164.0	79.495
1166.0	79.388
1168.0	79.218
1170.0	78.964
1172.0	78.647
1174.0	78.246
1176.0	77.778
1178.0	77.201
1180.0	76.529
1182.0	75.806
1184.0	75.181
1186.0	74.811
1188.0	74.914
1190.0	75.602
1192.0	76.845
1194.0	78.468
1196.0	80.194
1198.0	81.791
1200.0	83.098
1202.0	84.068
1204.0	84.754
1206.0	85.230
1208.0	85.588
1210.0	85.879
1212.0	86.106
1214.0	86.267
1216.0	86.393
1218.0	86.506
1220.0	86.607
1222.0	86.694
1224.0	86.744
1226.0	86.823
1228.0	86.903
1230.0	86.996
1232.0	87.062
1234.0	87.142
1236.0	87.216
1238.0	87.305
1240.0	87.379
1242.0	87.475
1244.0	87.564
1246.0	87.651
1248.0	87.724
1250.0	87.780
1252.0	87.811
1254.0	87.850
1256.0	87.884
1258.0	87.926
1260.0	87.949
1262.0	87.966
1264.0	87.963
1266.0	87.951
1268.0	87.952
1270.0	87.951
1272.0	87.953
1274.0	87.927
1276.0	87.879
1278.0	87.815
1280.0	87.756
1282.0	87.685
1284.0	87.579
1286.0	87.437
1288.0	87.284
1290.0	87.129
1292.0	86.983
1294.0	86.851
1296.0	86.740
1298.0	86.657
1300.0	86.626
1302.0	86.596
1304.0	86.563
1306.0	86.454
1308.0	86.327
1310.0	86.155
1312.0	85.978
1314.0	85.795
1316.0	85.600
1318.0	85.429
1320.0	85.244
1322.0	85.083
1324.0	84.904
1326.0	84.728
1328.0	84.551
1330.0	84.375
1332.0	84.208
1334.0	84.031
1336.0	83.838
1338.0	83.635
1340.0	83.354
1342.0	83.014
1344.0	82.538
1346.0	81.965
1348.0	81.280
1350.0	80.503
1352.0	79.668
1354.0	78.802
1356.0	77.973
1358.0	77.129
1360.0	76.266
1362.0	75.367
1364.0	74.448
1366.0	73.512
1368.0	72.651
1370.0	71.953
1372.0	71.486
1374.0	71.213
1376.0	71.139
1378.0	71.182
1380.0	71.291
1382.0	71.378
1384.0	71.426
1386.0	71.384
1388.0	71.254
1390.0	71.068
1392.0	70.851
1394.0	70.625
1396.0	70.343
1398.0	69.974
1400.0	69.508
1402.0	69.057
1404.0	68.750
1406.0	68.777
1408.0	69.211
1410.0	70.068
1412.0	71.168
1414.0	72.380
1416.0	73.487
1418.0	74.445
1420.0	75.129
1422.0	75.631
1424.0	75.973
1426.0	76.283
1428.0	76.670
1430.0	77.142
1432.0	77.700
1434.0	78.243
1436.0	78.758
1438.0	79.292
1440.0	79.801
1442.0	80.297
1444.0	80.732
1446.0	81.101
1448.0	81.383
1450.0	81.544
1452.0	81.573
1454.0	81.525
1456.0	81.395
1458.0	81.218
1460.0	81.016
1462.0	80.857
1464.0	80.766
1466.0	80.762
1468.0	80.858
1470.0	81.101
1472.0	81.439
1474.0	81.833
1476.0	82.280
1478.0	82.715
1480.0	83.103
1482.0	83.425
1484.0	83.702
1486.0	83.950
1488.0	84.158
1490.0	84.341
1492.0	84.542
1494.0	84.723
1496.0	84.918
1498.0	85.068
1500.0	85.233
1502.0	85.339
1504.0	85.413
1506.0	85.468
1508.0	85.542
1510.0	85.645
1512.0	85.761
1514.0	85.892
1516.0	86.026
1518.0	86.141
1520.0	86.256
1522.0	86.342
1524.0	86.431
1526.0	86.516
1528.0	86.553
1530.0	86.565
1532.0	86.547
1534.0	86.596
1536.0	86.583
1538.0	86.571
1540.0	86.528
1542.0	86.500
1544.0	86.419
1546.0	86.338
1548.0	86.224
1550.0	86.144
1552.0	86.022
1554.0	85.911
1556.0	85.813
1558.0	85.715
1560.0	85.642
1562.0	85.528
1564.0	85.438
1566.0	85.373
1568.0	85.298
1570.0	85.183
1572.0	85.000
1574.0	84.768
1576.0	84.497
1578.0	84.147
1580.0	83.766
1582.0	83.280
1584.0	82.773
1586.0	82.157
1588.0	81.539
1590.0	80.888
1592.0	80.232
1594.0	79.601
1596.0	79.014
1598.0	78.459
1600.0	77.832
1602.0	77.101
1604.0	76.253
1606.0	75.249
1608.0	74.047
1610.0	72.489
1612.0	70.463
1614.0	67.875
1616.0	64.890
1618.0	61.792
1620.0	58.804
1622.0	56.110
1624.0	53.645
1626.0	51.429
1628.0	49.379
1630.0	47.525
1632.0	45.835
1634.0	44.198
1636.0	42.270
1638.0	39.601
1640.0	35.957
1642.0	31.413
1644.0	26.411
1646.0	21.503
1648.0	17.242
1650.0	13.512
1652.0	10.517
1654.0	8.326
1656.0	6.989
1658.0	6.060
1660.0	5.531
1662.0	4.913
1664.0	4.716
1666.0	4.336
1668.0	4.641
1670.0	4.643
1672.0	4.703
1674.0	4.636
1676.0	5.157
1678.0	5.873
1680.0	6.872
1682.0	7.581
1684.0	8.389
1686.0	8.816
1688.0	9.270
1690.0	10.008
1692.0	10.712
1694.0	11.529
1696.0	12.348
1698.0	13.811
1700.0	15.602
1702.0	17.338
1704.0	18.703
1706.0	20.064
1708.0	21.170
1710.0	22.711
1712.0	24.160
1714.0	25.900
1716.0	27.515
1718.0	29.310
1720.0	30.417
1722.0	31.102
1724.0	30.949
1726.0	30.538
1728.0	29.368
1730.0	28.207
1732.0	27.212
1734.0	26.921
1736.0	26.783
1738.0	27.658
1740.0	28.747
1742.0	30.679
1744.0	32.375
1746.0	34.264
1748.0	36.017
1750.0	37.773
1752.0	39.002
1754.0	39.914
1756.0	40.312
1758.0	40.749
1760.0	40.647
1762.0	40.093
1764.0	39.651
1766.0	39.063
1768.0	39.029
1770.0	39.038
1772.0	39.904
1774.0	41.101
1776.0	42.201
1778.0	43.297
1780.0	44.460
1782.0	45.561
1784.0	46.458
1786.0	47.133
1788.0	47.860
1790.0	47.450
1792.0	47.056
1794.0	46.378
1796.0	46.340
1798.0	45.887
1800.0	45.438
1802.0	45.067
1804.0	45.006
1806.0	45.064
1808.0	45.641
1810.0	45.606
1812.0	45.466
1814.0	44.642
1816.0	44.127
1818.0	43.722
1820.0	43.167
1822.0	42.876
1824.0	42.237
1826.0	41.566
1828.0	41.068
1830.0	41.057
1832.0	41.336
1834.0	41.635
1836.0	42.275
1838.0	43.656
1840.0	44.784
1842.0	45.904
1844.0	46.505
1846.0	46.977
1848.0	47.045
1850.0	46.946
1852.0	46.679
1854.0	46.543
1856.0	46.689
1858.0	46.918
1860.0	46.891
1862.0	46.421
1864.0	46.134
1866.0	46.062
1868.0	45.932
1870.0	46.015
1872.0	45.786
1874.0	45.982
1876.0	46.195
1878.0	46.288
1880.0	46.560
1882.0	46.233
1884.0	46.112
1886.0	44.805
1888.0	42.716
1890.0	40.082
1892.0	36.356
1894.0	32.712
1896.0	29.333
1898.0	27.217
1900.0	25.789
1902.0	24.735
1904.0	24.811
1906.0	25.886
1908.0	27.619
1910.0	30.317
1912.0	33.576
1914.0	37.328
1916.0	40.549
1918.0	43.259
1920.0	45.271
1922.0	46.900
1924.0	48.148
1926.0	48.939
1928.0	50.122
1930.0	49.954
1932.0	50.572
1934.0	50.084
1936.0	50.486
1938.0	49.441
1940.0	49.175
1942.0	49.744
1944.0	50.342
1946.0	51.832
1948.0	52.477
1950.0	53.970
1952.0	55.079
1954.0	54.819
1956.0	55.863
1958.0	54.971
1960.0	55.761
1962.0	55.057
1964.0	55.984
1966.0	56.690
1968.0	56.851
1970.0	56.144
1972.0	55.249
1974.0	55.238
1976.0	54.434
1978.0	54.538
1980.0	54.558
1982.0	55.714
1984.0	56.005
1986.0	55.844
1988.0	55.549
1990.0	54.894
1992.0	54.010
1994.0	53.043
1996.0	53.177
1998.0	52.796
2000.0	52.936
2002.0	52.629
2004.0	52.605
2006.0	52.371
2008.0	51.326
2010.0	51.261
2012.0	50.635
2014.0	50.522
2016.0	50.506
2018.0	49.902
2020.0	49.789
2022.0	49.582
2024.0	50.377
2026.0	50.261
2028.0	49.483
2030.0	48.766
2032.0	48.731
2034.0	48.841
2036.0	48.422
2038.0	48.003
2040.0	47.290
2042.0	46.911
2044.0	46.501
2046.0	46.462
2048.0	46.906
2050.0	46.772
2052.0	45.815
2054.0	44.720
2056.0	43.164
2058.0	43.270
2060.0	42.801
2062.0	42.377
2064.0	41.497
2066.0	40.524
2068.0	40.248
2070.0	39.936
2072.0	39.245
2074.0	38.919
2076.0	38.093
2078.0	38.759
2080.0	38.084
2082.0	37.315
2084.0	36.156
2086.0	35.965
2088.0	35.294
2090.0	34.235
2092.0	33.368
2094.0	32.269
2096.0	31.539
2098.0	30.289
2100.0	30.354
2102.0	28.579
2104.0	26.954
2106.0	25.135
2108.0	24.047
2110.0	22.311
2112.0	19.226
2114.0	16.603
2116.0	14.078
2118.0	11.982
2120.0	9.698
2122.0	7.983
2124.0	6.944
2126.0	5.860
2128.0	5.376
2130.0	4.851
2132.0	5.015
2134.0	3.981
2136.0	3.455
2138.0	3.771
2140.0	4.224
2142.0	4.455
2144.0	3.826
2146.0	4.244
2148.0	4.646
2150.0	4.444
2152.0	4.020
2154.0	4.008
2156.0	3.816
2158.0	3.190
2160.0	2.830
2162.0	3.138
2164.0	4.076
2166.0	3.653
2168.0	2.996
2170.0	3.548
2172.0	3.677
2174.0	5.774
2176.0	5.964
2178.0	6.688
2180.0	5.408
2182.0	5.210
2184.0	5.121
2186.0	5.191
2188.0	5.050
2190.0	4.958
2192.0	4.320
2194.0	4.165
2196.0	4.586
2198.0	5.293
2200.0	6.782
2202.0	7.649
2204.0	9.812
2206.0	10.524
2208.0	10.097
2210.0	9.736
2212.0	8.895
2214.0	9.585
2216.0	8.396
2218.0	8.681
2220.0	8.675
2222.0	9.501
2224.0	9.849
2226.0	9.970
2228.0	8.915
2230.0	7.315
2232.0	6.085
2234.0	5.328
2236.0	5.454
2238.0	4.655
2240.0	5.581
2242.0	4.991
2244.0	5.370
2246.0	5.166
2248.0	5.612
2250.0	6.649
2252.0	7.001
2254.0	5.814
2256.0	4.692
2258.0	4.312
2260.0	5.170
2262.0	5.549
2264.0	5.207
2266.0	4.723
2268.0	3.565
2270.0	2.846
2272.0	2.470
2274.0	2.959
2276.0	2.690
2278.0	3.651
2280.0	3.303
2282.0	3.972
2284.0	3.356
2286.0	2.666
2288.0	2.698
2290.0	2.355
2292.0	3.835
2294.0	3.345
2296.0	3.005
2298.0	2.487
2300.0	2.657
2302.0	2.763
2304.0	2.905
2306.0	3.705
2308.0	3.930
2310.0	4.876
2312.0	3.853
2314.0	3.977
2316.0	2.645
2318.0	3.939
2320.0	3.740
2322.0	5.478
2324.0	5.066
2326.0	5.573
2328.0	4.339
2330.0	4.219
2332.0	3.457
2334.0	3.530
2336.0	3.944
2338.0	5.227
2340.0	5.448
2342.0	3.593
2344.0	3.487
2346.0	3.749
2348.0	5.400
2350.0	5.563
2352.0	4.175
2354.0	3.165
2356.0	2.580
2358.0	3.378
2360.0	4.090
2362.0	4.547
2364.0	3.659
2366.0	3.861
2368.0	2.352
2370.0	3.396
2372.0	4.239
2374.0	5.631
2376.0	5.144
2378.0	3.683
2380.0	2.339
2382.0	3.296
2384.0	2.645
2386.0	3.169
2388.0	1.612
2390.0	2.539
2392.0	2.188
2394.0	3.879
2396.0	5.763
2398.0	5.187
2400.0	5.107
2402.0	4.574
2404.0	7.464
2406.0	6.397
2408.0	5.106
2410.0	4.787
2412.0	3.973
2414.0	0.955
2416.0	-0.975
2418.0	0.241
2420.0	5.122
2422.0	5.404
2424.0	4.234
2426.0	1.733
2428.0	1.587
2430.0	3.133
2432.0	2.303
2434.0	2.710
2436.0	1.376
2438.0	1.675
2440.0	2.784
2442.0	5.012
2444.0	5.840
2446.0	5.393
2448.0	4.824
2450.0	3.682
2452.0	4.935
2454.0	3.809
2456.0	7.818
2458.0	5.310
2460.0	5.323
2462.0	2.739
2464.0	1.788
2466.0	3.435
2468.0	3.412
2470.0	6.867
2472.0	6.298
2474.0	6.183
2476.0	2.955
2478.0	2.111
2480.0	1.896
2482.0	3.475
2484.0	7.042
2486.0	5.318
2488.0	4.878
2490.0	-0.643
2492.0	2.565
2494.0	1.493
2496.0	2.352
2498.0	1.551
2500.0	3.325
