[SUMMARY]
Software Information
Software Name:	UVProbe
Version:	2.43
Mode:	Normal Mode

Data Information
Data is:	Original
Analyst:	
Date/Time:	05/11/2021 13:21:13
Comments:	

Instrument Information
Instrument Name:	SolidSpec3700
Instrument Type:	SolidSpec-3700 Series
Model (S/N):	SolidSpec3700 ( A11085100264CZ )

[METHOD]
[Measurement Properties]
Wavelength Range (nm.):	230,00 to 2500,00
Scan Speed:	Medium
Sampling Interval:	2,0
Auto Sampling Interval:	Disabled
Scan Mode:	Single

[Sample Preparation Properties]
Weight:	
Volume:	
Dilution:	
Path Length:	
Additional Information:	

[Instrument Properties]
Instrument Type:	SolidSpec-3700 Series
Measuring Mode:	Reflectance
Slit Width:	8,0 nm
Time Constant:	1,0 sec.
Source Lamp:	Auto
Light Source Change Wavelength:	295,00 nm
Detector Unit:	Integral Sphere
Detector Change Wavelength:	900,00 nm  1650,00 nm
Grating Change Wavelength:	830,00 nm
S/R Exchange:	Inverse
Detector Lock:	Auto
Slit Program:	Normal
Beam Mode:	Double
Stair Correction:	Disable

[Attachment Properties]
Attachment:	X-Y Stage
Sequence File:	Positions.xys

[Operation]
Threshold:	0,0010000
Points:	4
InterPolate:	Disabled
Average:	Disabled

[DATA]
Wavelength	Data
230.0	5.666
232.0	5.719
234.0	5.815
236.0	5.939
238.0	6.097
240.0	6.248
242.0	6.379
244.0	6.487
246.0	6.540
248.0	6.577
250.0	6.557
252.0	6.531
254.0	6.472
256.0	6.441
258.0	6.396
260.0	6.356
262.0	6.267
264.0	6.186
266.0	6.094
268.0	6.015
270.0	5.965
272.0	5.938
274.0	5.914
276.0	5.896
278.0	5.859
280.0	5.864
282.0	5.879
284.0	5.973
286.0	6.227
288.0	6.915
290.0	8.452
292.0	11.164
294.0	14.746
296.0	18.908
298.0	23.303
300.0	26.012
302.0	27.660
304.0	28.723
306.0	29.921
308.0	29.698
310.0	29.474
312.0	29.362
314.0	30.487
316.0	30.985
318.0	31.175
320.0	31.245
322.0	30.952
324.0	31.266
326.0	31.740
328.0	32.046
330.0	32.478
332.0	32.414
334.0	32.543
336.0	32.352
338.0	32.427
340.0	32.519
342.0	32.591
344.0	32.658
346.0	32.784
348.0	33.063
350.0	33.270
352.0	33.327
354.0	33.398
356.0	33.451
358.0	33.588
360.0	33.613
362.0	33.721
364.0	33.735
366.0	33.756
368.0	33.775
370.0	33.814
372.0	33.864
374.0	33.927
376.0	34.066
378.0	34.153
380.0	34.260
382.0	34.284
384.0	34.369
386.0	34.420
388.0	34.584
390.0	34.720
392.0	34.847
394.0	34.976
396.0	35.138
398.0	35.333
400.0	35.562
402.0	35.787
404.0	35.978
406.0	36.122
408.0	36.287
410.0	36.506
412.0	36.707
414.0	36.907
416.0	37.110
418.0	37.331
420.0	37.559
422.0	37.776
424.0	38.020
426.0	38.268
428.0	38.534
430.0	38.796
432.0	39.072
434.0	39.410
436.0	39.728
438.0	40.083
440.0	40.389
442.0	40.757
444.0	41.135
446.0	41.562
448.0	41.968
450.0	42.409
452.0	42.894
454.0	43.445
456.0	43.960
458.0	44.418
460.0	44.914
462.0	45.480
464.0	46.116
466.0	46.697
468.0	47.196
470.0	47.679
472.0	48.210
474.0	48.921
476.0	49.695
478.0	50.400
480.0	50.943
482.0	51.502
484.0	52.206
486.0	53.101
488.0	53.894
490.0	54.506
492.0	54.982
494.0	55.551
496.0	56.332
498.0	57.200
500.0	58.048
502.0	58.690
504.0	59.215
506.0	59.710
508.0	60.420
510.0	61.277
512.0	62.132
514.0	62.769
516.0	63.200
518.0	63.567
520.0	64.079
522.0	64.776
524.0	65.626
526.0	66.416
528.0	66.938
530.0	67.250
532.0	67.493
534.0	67.898
536.0	68.529
538.0	69.204
540.0	69.869
542.0	70.265
544.0	70.502
546.0	70.589
548.0	70.791
550.0	71.210
552.0	71.818
554.0	72.403
556.0	72.848
558.0	73.107
560.0	73.161
562.0	73.176
564.0	73.286
566.0	73.649
568.0	74.138
570.0	74.665
572.0	75.094
574.0	75.366
576.0	75.450
578.0	75.431
580.0	75.411
582.0	75.561
584.0	75.845
586.0	76.325
588.0	76.760
590.0	77.134
592.0	77.307
594.0	77.280
596.0	77.160
598.0	77.046
600.0	77.138
602.0	77.439
604.0	77.882
606.0	78.386
608.0	78.774
610.0	78.992
612.0	78.959
614.0	78.776
616.0	78.597
618.0	78.514
620.0	78.630
622.0	78.960
624.0	79.418
626.0	79.943
628.0	80.284
630.0	80.485
632.0	80.401
634.0	80.192
636.0	79.905
638.0	79.774
640.0	79.824
642.0	80.107
644.0	80.557
646.0	81.053
648.0	81.495
650.0	81.722
652.0	81.771
654.0	81.594
656.0	81.277
658.0	81.006
660.0	80.885
662.0	80.989
664.0	81.181
666.0	81.529
668.0	82.029
670.0	82.600
672.0	83.051
674.0	83.202
676.0	83.111
678.0	82.830
680.0	82.559
682.0	82.272
684.0	82.171
686.0	82.254
688.0	82.497
690.0	82.901
692.0	83.386
694.0	83.962
696.0	84.328
698.0	84.467
700.0	84.398
702.0	84.181
704.0	83.832
706.0	83.450
708.0	83.278
710.0	83.199
712.0	83.453
714.0	83.794
716.0	84.333
718.0	84.810
720.0	85.217
722.0	85.525
724.0	85.698
726.0	85.571
728.0	85.347
730.0	84.915
732.0	84.564
734.0	84.325
736.0	84.249
738.0	84.406
740.0	84.668
742.0	85.155
744.0	85.627
746.0	86.013
748.0	86.497
750.0	86.805
752.0	87.040
754.0	86.928
756.0	86.780
758.0	86.516
760.0	86.159
762.0	85.833
764.0	85.697
766.0	85.620
768.0	85.784
770.0	86.061
772.0	86.478
774.0	86.873
776.0	87.340
778.0	87.807
780.0	88.124
782.0	88.252
784.0	88.120
786.0	88.047
788.0	87.635
790.0	87.413
792.0	87.082
794.0	86.869
796.0	86.703
798.0	86.635
800.0	86.618
802.0	86.733
804.0	86.961
806.0	87.469
808.0	87.957
810.0	88.279
812.0	88.598
814.0	89.003
816.0	89.323
818.0	89.358
820.0	89.129
822.0	88.836
824.0	88.641
826.0	88.259
828.0	87.974
830.0	87.414
832.0	87.001
834.0	86.651
836.0	86.734
838.0	86.866
840.0	87.108
842.0	87.230
844.0	87.594
846.0	87.897
848.0	88.090
850.0	88.062
852.0	88.037
854.0	87.990
856.0	88.119
858.0	88.015
860.0	87.936
862.0	87.467
864.0	87.078
866.0	86.799
868.0	86.584
870.0	86.846
872.0	86.533
874.0	86.463
876.0	86.134
878.0	86.288
880.0	86.538
882.0	87.157
884.0	87.406
886.0	88.235
888.0	88.324
890.0	89.267
892.0	89.198
894.0	88.797
896.0	89.157
898.0	88.649
900.0	88.543
902.0	87.055
904.0	86.662
906.0	86.411
908.0	86.332
910.0	86.269
912.0	86.138
914.0	86.067
916.0	86.058
918.0	86.167
920.0	86.341
922.0	86.538
924.0	86.857
926.0	87.140
928.0	87.411
930.0	87.594
932.0	87.817
934.0	87.994
936.0	88.169
938.0	88.214
940.0	88.227
942.0	88.173
944.0	88.139
946.0	87.972
948.0	87.776
950.0	87.515
952.0	87.301
954.0	87.118
956.0	86.933
958.0	86.784
960.0	86.663
962.0	86.628
964.0	86.653
966.0	86.772
968.0	86.949
970.0	87.229
972.0	87.506
974.0	87.792
976.0	88.030
978.0	88.311
980.0	88.537
982.0	88.760
984.0	88.922
986.0	89.062
988.0	89.155
990.0	89.169
992.0	89.137
994.0	89.006
996.0	88.839
998.0	88.600
1000.0	88.357
1002.0	88.078
1004.0	87.834
1006.0	87.600
1008.0	87.406
1010.0	87.253
1012.0	87.129
1014.0	87.083
1016.0	87.105
1018.0	87.177
1020.0	87.303
1022.0	87.455
1024.0	87.666
1026.0	87.897
1028.0	88.138
1030.0	88.388
1032.0	88.646
1034.0	88.900
1036.0	89.144
1038.0	89.355
1040.0	89.512
1042.0	89.598
1044.0	89.628
1046.0	89.622
1048.0	89.555
1050.0	89.434
1052.0	89.266
1054.0	89.048
1056.0	88.809
1058.0	88.525
1060.0	88.250
1062.0	87.967
1064.0	87.735
1066.0	87.538
1068.0	87.384
1070.0	87.269
1072.0	87.195
1074.0	87.195
1076.0	87.273
1078.0	87.418
1080.0	87.598
1082.0	87.789
1084.0	88.034
1086.0	88.291
1088.0	88.565
1090.0	88.829
1092.0	89.073
1094.0	89.314
1096.0	89.555
1098.0	89.760
1100.0	89.935
1102.0	90.027
1104.0	90.091
1106.0	90.085
1108.0	90.057
1110.0	89.959
1112.0	89.826
1114.0	89.640
1116.0	89.411
1118.0	89.179
1120.0	88.913
1122.0	88.653
1124.0	88.388
1126.0	88.168
1128.0	87.991
1130.0	87.818
1132.0	87.705
1134.0	87.618
1136.0	87.595
1138.0	87.610
1140.0	87.698
1142.0	87.829
1144.0	88.016
1146.0	88.232
1148.0	88.488
1150.0	88.725
1152.0	89.004
1154.0	89.281
1156.0	89.560
1158.0	89.823
1160.0	90.086
1162.0	90.350
1164.0	90.570
1166.0	90.757
1168.0	90.911
1170.0	91.029
1172.0	91.107
1174.0	91.152
1176.0	91.147
1178.0	91.097
1180.0	90.987
1182.0	90.856
1184.0	90.701
1186.0	90.499
1188.0	90.259
1190.0	89.990
1192.0	89.710
1194.0	89.429
1196.0	89.145
1198.0	88.917
1200.0	88.699
1202.0	88.524
1204.0	88.355
1206.0	88.240
1208.0	88.167
1210.0	88.154
1212.0	88.184
1214.0	88.258
1216.0	88.350
1218.0	88.494
1220.0	88.665
1222.0	88.886
1224.0	89.098
1226.0	89.342
1228.0	89.605
1230.0	89.870
1232.0	90.116
1234.0	90.345
1236.0	90.550
1238.0	90.750
1240.0	90.910
1242.0	91.058
1244.0	91.166
1246.0	91.253
1248.0	91.307
1250.0	91.324
1252.0	91.297
1254.0	91.253
1256.0	91.180
1258.0	91.086
1260.0	90.960
1262.0	90.815
1264.0	90.655
1266.0	90.472
1268.0	90.294
1270.0	90.086
1272.0	89.889
1274.0	89.657
1276.0	89.435
1278.0	89.198
1280.0	88.983
1282.0	88.783
1284.0	88.606
1286.0	88.467
1288.0	88.367
1290.0	88.299
1292.0	88.278
1294.0	88.276
1296.0	88.297
1298.0	88.350
1300.0	88.468
1302.0	88.640
1304.0	88.831
1306.0	89.038
1308.0	89.270
1310.0	89.513
1312.0	89.756
1314.0	89.997
1316.0	90.247
1318.0	90.498
1320.0	90.760
1322.0	90.980
1324.0	91.180
1326.0	91.380
1328.0	91.581
1330.0	91.774
1332.0	91.929
1334.0	92.070
1336.0	92.196
1338.0	92.300
1340.0	92.343
1342.0	92.386
1344.0	92.378
1346.0	92.375
1348.0	92.315
1350.0	92.221
1352.0	92.090
1354.0	91.954
1356.0	91.815
1358.0	91.659
1360.0	91.457
1362.0	91.257
1364.0	91.051
1366.0	90.876
1368.0	90.710
1370.0	90.568
1372.0	90.436
1374.0	90.325
1376.0	90.250
1378.0	90.186
1380.0	90.152
1382.0	90.151
1384.0	90.189
1386.0	90.259
1388.0	90.365
1390.0	90.500
1392.0	90.699
1394.0	90.927
1396.0	91.225
1398.0	91.533
1400.0	91.867
1402.0	92.180
1404.0	92.517
1406.0	92.855
1408.0	93.226
1410.0	93.575
1412.0	93.893
1414.0	94.183
1416.0	94.463
1418.0	94.742
1420.0	95.054
1422.0	95.350
1424.0	95.622
1426.0	95.812
1428.0	96.012
1430.0	96.197
1432.0	96.366
1434.0	96.502
1436.0	96.629
1438.0	96.735
1440.0	96.790
1442.0	96.826
1444.0	96.850
1446.0	96.855
1448.0	96.821
1450.0	96.781
1452.0	96.725
1454.0	96.642
1456.0	96.504
1458.0	96.339
1460.0	96.133
1462.0	95.946
1464.0	95.714
1466.0	95.483
1468.0	95.209
1470.0	94.935
1472.0	94.687
1474.0	94.395
1476.0	94.131
1478.0	93.832
1480.0	93.539
1482.0	93.244
1484.0	92.946
1486.0	92.701
1488.0	92.478
1490.0	92.300
1492.0	92.100
1494.0	91.931
1496.0	91.792
1498.0	91.707
1500.0	91.645
1502.0	91.605
1504.0	91.599
1506.0	91.593
1508.0	91.594
1510.0	91.610
1512.0	91.670
1514.0	91.750
1516.0	91.853
1518.0	91.937
1520.0	92.019
1522.0	92.116
1524.0	92.214
1526.0	92.353
1528.0	92.469
1530.0	92.568
1532.0	92.679
1534.0	92.807
1536.0	92.939
1538.0	93.078
1540.0	93.169
1542.0	93.311
1544.0	93.371
1546.0	93.491
1548.0	93.534
1550.0	93.600
1552.0	93.657
1554.0	93.722
1556.0	93.799
1558.0	93.812
1560.0	93.816
1562.0	93.763
1564.0	93.737
1566.0	93.703
1568.0	93.691
1570.0	93.636
1572.0	93.550
1574.0	93.431
1576.0	93.335
1578.0	93.195
1580.0	93.113
1582.0	92.937
1584.0	92.783
1586.0	92.584
1588.0	92.393
1590.0	92.217
1592.0	91.971
1594.0	91.732
1596.0	91.525
1598.0	91.302
1600.0	91.094
1602.0	90.884
1604.0	90.655
1606.0	90.439
1608.0	90.192
1610.0	90.038
1612.0	89.812
1614.0	89.626
1616.0	89.436
1618.0	89.333
1620.0	89.206
1622.0	89.126
1624.0	89.073
1626.0	89.037
1628.0	89.004
1630.0	88.940
1632.0	88.925
1634.0	88.928
1636.0	89.012
1638.0	89.077
1640.0	89.147
1642.0	89.184
1644.0	89.235
1646.0	89.318
1648.0	89.460
1650.0	85.709
1652.0	81.876
1654.0	78.107
1656.0	78.377
1658.0	78.615
1660.0	78.638
1662.0	78.615
1664.0	78.897
1666.0	79.001
1668.0	79.204
1670.0	79.119
1672.0	79.155
1674.0	79.093
1676.0	79.248
1678.0	79.567
1680.0	79.796
1682.0	80.212
1684.0	80.404
1686.0	80.345
1688.0	79.993
1690.0	80.129
1692.0	80.224
1694.0	80.353
1696.0	80.220
1698.0	80.423
1700.0	80.359
1702.0	80.778
1704.0	80.533
1706.0	80.620
1708.0	80.009
1710.0	79.866
1712.0	79.883
1714.0	80.016
1716.0	80.026
1718.0	80.035
1720.0	80.257
1722.0	80.051
1724.0	79.795
1726.0	79.339
1728.0	79.749
1730.0	79.682
1732.0	79.528
1734.0	78.872
1736.0	78.704
1738.0	78.679
1740.0	78.956
1742.0	78.635
1744.0	78.776
1746.0	78.467
1748.0	78.592
1750.0	78.158
1752.0	78.337
1754.0	78.122
1756.0	77.928
1758.0	77.742
1760.0	77.953
1762.0	78.078
1764.0	77.628
1766.0	77.326
1768.0	76.826
1770.0	76.821
1772.0	76.684
1774.0	76.961
1776.0	77.091
1778.0	76.863
1780.0	77.011
1782.0	76.521
1784.0	76.445
1786.0	76.388
1788.0	76.823
1790.0	77.026
1792.0	76.806
1794.0	76.870
1796.0	77.200
1798.0	77.153
1800.0	77.273
1802.0	77.067
1804.0	77.519
1806.0	77.270
1808.0	77.563
1810.0	77.522
1812.0	78.112
1814.0	77.797
1816.0	77.702
1818.0	77.570
1820.0	77.844
1822.0	78.133
1824.0	78.268
1826.0	78.663
1828.0	78.959
1830.0	79.402
1832.0	79.058
1834.0	78.851
1836.0	78.158
1838.0	78.461
1840.0	78.567
1842.0	78.875
1844.0	78.593
1846.0	78.987
1848.0	79.671
1850.0	79.696
1852.0	79.328
1854.0	79.066
1856.0	79.857
1858.0	79.889
1860.0	80.329
1862.0	80.056
1864.0	81.029
1866.0	80.902
1868.0	81.786
1870.0	81.844
1872.0	82.653
1874.0	82.854
1876.0	83.442
1878.0	83.731
1880.0	84.402
1882.0	84.396
1884.0	84.575
1886.0	84.360
1888.0	84.231
1890.0	84.335
1892.0	84.412
1894.0	85.162
1896.0	86.444
1898.0	87.003
1900.0	87.456
1902.0	86.560
1904.0	86.998
1906.0	86.931
1908.0	87.422
1910.0	88.320
1912.0	88.500
1914.0	89.656
1916.0	89.492
1918.0	89.833
1920.0	88.815
1922.0	88.183
1924.0	88.155
1926.0	87.951
1928.0	88.134
1930.0	87.632
1932.0	87.159
1934.0	87.176
1936.0	87.929
1938.0	88.509
1940.0	87.162
1942.0	85.817
1944.0	85.383
1946.0	86.954
1948.0	86.515
1950.0	86.651
1952.0	85.748
1954.0	85.801
1956.0	85.908
1958.0	85.616
1960.0	84.801
1962.0	84.424
1964.0	83.384
1966.0	84.914
1968.0	84.359
1970.0	85.256
1972.0	83.285
1974.0	83.423
1976.0	81.972
1978.0	82.183
1980.0	81.484
1982.0	82.232
1984.0	82.425
1986.0	82.732
1988.0	83.297
1990.0	83.666
1992.0	83.131
1994.0	82.518
1996.0	82.564
1998.0	82.862
2000.0	82.992
2002.0	83.111
2004.0	82.087
2006.0	81.588
2008.0	80.288
2010.0	80.685
2012.0	80.273
2014.0	80.878
2016.0	80.856
2018.0	79.930
2020.0	79.215
2022.0	78.821
2024.0	79.382
2026.0	80.189
2028.0	80.016
2030.0	79.857
2032.0	79.888
2034.0	80.591
2036.0	80.864
2038.0	80.676
2040.0	80.161
2042.0	79.983
2044.0	80.139
2046.0	80.120
2048.0	80.994
2050.0	80.914
2052.0	81.279
2054.0	81.139
2056.0	81.162
2058.0	80.678
2060.0	79.841
2062.0	79.538
2064.0	79.452
2066.0	80.346
2068.0	80.609
2070.0	81.430
2072.0	79.590
2074.0	79.900
2076.0	78.961
2078.0	80.689
2080.0	80.536
2082.0	81.633
2084.0	80.607
2086.0	79.829
2088.0	78.176
2090.0	78.783
2092.0	79.237
2094.0	79.644
2096.0	79.385
2098.0	77.940
2100.0	78.775
2102.0	78.297
2104.0	79.104
2106.0	78.943
2108.0	79.599
2110.0	80.111
2112.0	78.852
2114.0	78.820
2116.0	77.515
2118.0	78.151
2120.0	76.986
2122.0	78.148
2124.0	77.460
2126.0	76.715
2128.0	76.450
2130.0	76.618
2132.0	77.056
2134.0	74.969
2136.0	74.917
2138.0	75.161
2140.0	77.511
2142.0	76.356
2144.0	76.310
2146.0	74.970
2148.0	75.627
2150.0	75.490
2152.0	75.774
2154.0	74.976
2156.0	74.437
2158.0	73.556
2160.0	74.613
2162.0	74.618
2164.0	74.977
2166.0	73.238
2168.0	73.749
2170.0	73.838
2172.0	75.201
2174.0	75.146
2176.0	73.612
2178.0	72.465
2180.0	71.237
2182.0	73.062
2184.0	74.233
2186.0	74.176
2188.0	73.377
2190.0	72.841
2192.0	73.089
2194.0	71.617
2196.0	71.436
2198.0	73.058
2200.0	73.402
2202.0	71.948
2204.0	71.155
2206.0	72.061
2208.0	73.061
2210.0	73.033
2212.0	73.435
2214.0	73.514
2216.0	72.482
2218.0	72.131
2220.0	71.071
2222.0	70.267
2224.0	69.763
2226.0	70.172
2228.0	71.866
2230.0	73.595
2232.0	75.218
2234.0	74.143
2236.0	73.038
2238.0	72.153
2240.0	72.718
2242.0	72.696
2244.0	73.413
2246.0	73.026
2248.0	71.789
2250.0	69.985
2252.0	70.132
2254.0	71.776
2256.0	73.268
2258.0	72.745
2260.0	71.687
2262.0	70.649
2264.0	70.942
2266.0	71.069
2268.0	71.980
2270.0	70.904
2272.0	70.647
2274.0	71.214
2276.0	70.374
2278.0	69.871
2280.0	69.207
2282.0	70.680
2284.0	70.558
2286.0	70.348
2288.0	70.082
2290.0	70.850
2292.0	71.183
2294.0	72.080
2296.0	70.214
2298.0	69.847
2300.0	69.870
2302.0	71.414
2304.0	70.052
2306.0	68.415
2308.0	68.387
2310.0	69.009
2312.0	69.647
2314.0	68.669
2316.0	70.241
2318.0	70.657
2320.0	71.761
2322.0	70.705
2324.0	72.626
2326.0	72.569
2328.0	72.200
2330.0	71.784
2332.0	71.141
2334.0	72.918
2336.0	71.126
2338.0	72.000
2340.0	70.898
2342.0	71.824
2344.0	72.649
2346.0	72.445
2348.0	73.007
2350.0	72.312
2352.0	71.871
2354.0	70.929
2356.0	71.288
2358.0	72.955
2360.0	72.237
2362.0	71.856
2364.0	69.180
2366.0	70.916
2368.0	73.583
2370.0	76.313
2372.0	75.398
2374.0	74.607
2376.0	73.837
2378.0	73.623
2380.0	71.326
2382.0	70.280
2384.0	71.277
2386.0	70.851
2388.0	72.648
2390.0	72.918
2392.0	74.911
2394.0	76.620
2396.0	77.392
2398.0	77.853
2400.0	75.377
2402.0	76.435
2404.0	76.477
2406.0	77.361
2408.0	76.472
2410.0	74.230
2412.0	75.900
2414.0	72.533
2416.0	73.277
2418.0	67.522
2420.0	70.173
2422.0	70.695
2424.0	74.732
2426.0	76.528
2428.0	75.084
2430.0	74.858
2432.0	72.898
2434.0	71.773
2436.0	70.349
2438.0	70.129
2440.0	73.046
2442.0	70.895
2444.0	69.979
2446.0	69.018
2448.0	70.444
2450.0	76.786
2452.0	75.864
2454.0	78.074
2456.0	72.795
2458.0	75.207
2460.0	73.092
2462.0	71.923
2464.0	70.673
2466.0	74.734
2468.0	72.666
2470.0	72.007
2472.0	68.701
2474.0	71.222
2476.0	71.132
2478.0	71.879
2480.0	75.163
2482.0	77.610
2484.0	78.055
2486.0	72.376
2488.0	75.655
2490.0	75.994
2492.0	75.116
2494.0	69.801
2496.0	73.733
2498.0	78.919
2500.0	80.974
