[SUMMARY]
Software Information
Software Name:	UVProbe
Version:	2.43
Mode:	Normal Mode

Data Information
Data is:	Original
Analyst:	
Date/Time:	05/11/2021 11:33:09
Comments:	

Instrument Information
Instrument Name:	SolidSpec3700
Instrument Type:	SolidSpec-3700 Series
Model (S/N):	SolidSpec3700 ( A11085100264CZ )

[METHOD]
[Measurement Properties]
Wavelength Range (nm.):	230,00 to 2500,00
Scan Speed:	Medium
Sampling Interval:	2,0
Auto Sampling Interval:	Disabled
Scan Mode:	Single

[Sample Preparation Properties]
Weight:	
Volume:	
Dilution:	
Path Length:	
Additional Information:	

[Instrument Properties]
Instrument Type:	SolidSpec-3700 Series
Measuring Mode:	Transmittance
Slit Width:	8,0 nm
Time Constant:	1,0 sec.
Source Lamp:	Auto
Light Source Change Wavelength:	295,00 nm
Detector Unit:	Integral Sphere
Detector Change Wavelength:	900,00 nm  1650,00 nm
Grating Change Wavelength:	830,00 nm
S/R Exchange:	Normal
Detector Lock:	Auto
Slit Program:	Normal
Beam Mode:	Double
Stair Correction:	Disable

[Attachment Properties]
Attachment:	X-Y Stage
Sequence File:	Positions.xys

[Operation]
Threshold:	0,0010000
Points:	4
InterPolate:	Disabled
Average:	Disabled

[DATA]
Wavelength	Data
230.0	0.014
232.0	0.017
234.0	0.019
236.0	0.017
238.0	0.014
240.0	0.011
242.0	0.012
244.0	0.015
246.0	0.037
248.0	0.108
250.0	0.276
252.0	0.583
254.0	1.018
256.0	1.503
258.0	1.938
260.0	2.250
262.0	2.440
264.0	2.515
266.0	2.526
268.0	2.497
270.0	2.461
272.0	2.400
274.0	2.300
276.0	2.135
278.0	1.926
280.0	1.700
282.0	1.494
284.0	1.315
286.0	1.149
288.0	1.003
290.0	0.871
292.0	0.766
294.0	0.695
296.0	0.604
298.0	0.614
300.0	0.522
302.0	0.706
304.0	0.706
306.0	0.911
308.0	0.872
310.0	0.985
312.0	1.241
314.0	1.492
316.0	1.800
318.0	1.931
320.0	2.011
322.0	2.061
324.0	2.079
326.0	2.180
328.0	2.284
330.0	2.435
332.0	2.630
334.0	2.797
336.0	2.997
338.0	3.227
340.0	3.520
342.0	3.880
344.0	4.445
346.0	5.170
348.0	6.051
350.0	7.059
352.0	8.310
354.0	9.826
356.0	11.647
358.0	13.819
360.0	16.710
362.0	20.180
364.0	24.438
366.0	29.138
368.0	34.680
370.0	40.766
372.0	47.406
374.0	54.142
376.0	60.809
378.0	67.082
380.0	72.772
382.0	77.536
384.0	81.349
386.0	84.281
388.0	86.504
390.0	88.196
392.0	89.357
394.0	90.152
396.0	90.694
398.0	91.099
400.0	91.389
402.0	91.541
404.0	91.654
406.0	91.744
408.0	91.831
410.0	91.837
412.0	91.844
414.0	91.804
416.0	91.848
418.0	91.905
420.0	91.985
422.0	91.941
424.0	91.908
426.0	91.901
428.0	91.943
430.0	91.981
432.0	92.011
434.0	92.034
436.0	92.040
438.0	92.016
440.0	91.992
442.0	91.997
444.0	91.994
446.0	92.015
448.0	92.045
450.0	92.061
452.0	92.053
454.0	92.038
456.0	92.051
458.0	92.103
460.0	92.114
462.0	92.118
464.0	92.112
466.0	92.127
468.0	92.103
470.0	92.112
472.0	92.124
474.0	92.146
476.0	92.117
478.0	92.145
480.0	92.155
482.0	92.181
484.0	92.135
486.0	92.127
488.0	92.130
490.0	92.133
492.0	92.176
494.0	92.155
496.0	92.164
498.0	92.121
500.0	92.171
502.0	92.169
504.0	92.198
506.0	92.194
508.0	92.244
510.0	92.238
512.0	92.194
514.0	92.162
516.0	92.131
518.0	92.190
520.0	92.194
522.0	92.233
524.0	92.208
526.0	92.208
528.0	92.229
530.0	92.255
532.0	92.275
534.0	92.268
536.0	92.261
538.0	92.263
540.0	92.282
542.0	92.265
544.0	92.281
546.0	92.249
548.0	92.260
550.0	92.256
552.0	92.261
554.0	92.285
556.0	92.312
558.0	92.345
560.0	92.338
562.0	92.279
564.0	92.291
566.0	92.273
568.0	92.318
570.0	92.286
572.0	92.312
574.0	92.252
576.0	92.262
578.0	92.277
580.0	92.338
582.0	92.343
584.0	92.344
586.0	92.360
588.0	92.373
590.0	92.354
592.0	92.336
594.0	92.330
596.0	92.310
598.0	92.330
600.0	92.364
602.0	92.412
604.0	92.405
606.0	92.405
608.0	92.387
610.0	92.380
612.0	92.320
614.0	92.302
616.0	92.267
618.0	92.260
620.0	92.297
622.0	92.339
624.0	92.370
626.0	92.363
628.0	92.374
630.0	92.348
632.0	92.349
634.0	92.348
636.0	92.371
638.0	92.374
640.0	92.383
642.0	92.429
644.0	92.430
646.0	92.431
648.0	92.390
650.0	92.402
652.0	92.372
654.0	92.384
656.0	92.409
658.0	92.441
660.0	92.473
662.0	92.430
664.0	92.406
666.0	92.395
668.0	92.403
670.0	92.421
672.0	92.426
674.0	92.450
676.0	92.444
678.0	92.473
680.0	92.459
682.0	92.490
684.0	92.448
686.0	92.461
688.0	92.374
690.0	92.374
692.0	92.366
694.0	92.412
696.0	92.394
698.0	92.387
700.0	92.423
702.0	92.449
704.0	92.453
706.0	92.445
708.0	92.475
710.0	92.509
712.0	92.513
714.0	92.501
716.0	92.441
718.0	92.427
720.0	92.319
722.0	92.310
724.0	92.308
726.0	92.310
728.0	92.364
730.0	92.280
732.0	92.371
734.0	92.287
736.0	92.368
738.0	92.416
740.0	92.563
742.0	92.556
744.0	92.417
746.0	92.308
748.0	92.291
750.0	92.435
752.0	92.442
754.0	92.470
756.0	92.492
758.0	92.547
760.0	92.514
762.0	92.405
764.0	92.331
766.0	92.333
768.0	92.430
770.0	92.511
772.0	92.566
774.0	92.452
776.0	92.415
778.0	92.425
780.0	92.599
782.0	92.648
784.0	92.635
786.0	92.563
788.0	92.493
790.0	92.395
792.0	92.361
794.0	92.385
796.0	92.400
798.0	92.343
800.0	92.375
802.0	92.363
804.0	92.436
806.0	92.397
808.0	92.435
810.0	92.432
812.0	92.387
814.0	92.423
816.0	92.273
818.0	92.153
820.0	92.215
822.0	92.496
824.0	92.753
826.0	92.735
828.0	92.483
830.0	92.427
832.0	92.377
834.0	92.470
836.0	92.401
838.0	92.472
840.0	92.430
842.0	92.464
844.0	92.380
846.0	92.464
848.0	92.469
850.0	92.555
852.0	92.607
854.0	92.643
856.0	92.594
858.0	92.506
860.0	92.410
862.0	92.415
864.0	92.198
866.0	92.269
868.0	92.216
870.0	92.564
872.0	92.387
874.0	92.356
876.0	91.949
878.0	92.054
880.0	91.519
882.0	91.432
884.0	91.010
886.0	91.463
888.0	91.819
890.0	91.744
892.0	91.733
894.0	91.192
896.0	91.085
898.0	91.216
900.0	91.421
902.0	91.819
904.0	91.647
906.0	91.749
908.0	91.800
910.0	91.833
912.0	91.912
914.0	92.059
916.0	92.149
918.0	92.288
920.0	92.325
922.0	92.352
924.0	92.372
926.0	92.386
928.0	92.471
930.0	92.472
932.0	92.475
934.0	92.479
936.0	92.508
938.0	92.574
940.0	92.594
942.0	92.653
944.0	92.716
946.0	92.723
948.0	92.712
950.0	92.662
952.0	92.620
954.0	92.586
956.0	92.560
958.0	92.579
960.0	92.596
962.0	92.612
964.0	92.590
966.0	92.545
968.0	92.497
970.0	92.471
972.0	92.426
974.0	92.406
976.0	92.378
978.0	92.350
980.0	92.309
982.0	92.255
984.0	92.224
986.0	92.176
988.0	92.139
990.0	92.103
992.0	92.087
994.0	92.059
996.0	92.002
998.0	91.938
1000.0	91.896
1002.0	91.874
1004.0	91.856
1006.0	91.888
1008.0	91.927
1010.0	91.979
1012.0	91.998
1014.0	92.019
1016.0	92.058
1018.0	92.081
1020.0	92.108
1022.0	92.103
1024.0	92.112
1026.0	92.136
1028.0	92.175
1030.0	92.213
1032.0	92.223
1034.0	92.232
1036.0	92.241
1038.0	92.278
1040.0	92.306
1042.0	92.364
1044.0	92.426
1046.0	92.491
1048.0	92.534
1050.0	92.541
1052.0	92.562
1054.0	92.588
1056.0	92.617
1058.0	92.650
1060.0	92.664
1062.0	92.695
1064.0	92.727
1066.0	92.763
1068.0	92.804
1070.0	92.807
1072.0	92.825
1074.0	92.820
1076.0	92.852
1078.0	92.856
1080.0	92.868
1082.0	92.860
1084.0	92.852
1086.0	92.834
1088.0	92.809
1090.0	92.797
1092.0	92.773
1094.0	92.754
1096.0	92.719
1098.0	92.647
1100.0	92.540
1102.0	92.407
1104.0	92.278
1106.0	92.137
1108.0	91.966
1110.0	91.778
1112.0	91.565
1114.0	91.314
1116.0	91.018
1118.0	90.687
1120.0	90.300
1122.0	89.865
1124.0	89.409
1126.0	88.931
1128.0	88.469
1130.0	87.983
1132.0	87.539
1134.0	87.090
1136.0	86.673
1138.0	86.267
1140.0	85.884
1142.0	85.466
1144.0	85.045
1146.0	84.598
1148.0	84.147
1150.0	83.626
1152.0	83.044
1154.0	82.392
1156.0	81.706
1158.0	81.025
1160.0	80.391
1162.0	79.813
1164.0	79.295
1166.0	78.831
1168.0	78.455
1170.0	78.192
1172.0	78.056
1174.0	78.091
1176.0	78.300
1178.0	78.762
1180.0	79.448
1182.0	80.320
1184.0	81.267
1186.0	82.214
1188.0	83.078
1190.0	83.844
1192.0	84.522
1194.0	85.148
1196.0	85.721
1198.0	86.247
1200.0	86.797
1202.0	87.349
1204.0	87.930
1206.0	88.483
1208.0	89.005
1210.0	89.476
1212.0	89.892
1214.0	90.247
1216.0	90.552
1218.0	90.777
1220.0	90.985
1222.0	91.130
1224.0	91.253
1226.0	91.346
1228.0	91.470
1230.0	91.587
1232.0	91.680
1234.0	91.763
1236.0	91.837
1238.0	91.908
1240.0	91.953
1242.0	92.002
1244.0	92.079
1246.0	92.148
1248.0	92.228
1250.0	92.274
1252.0	92.315
1254.0	92.348
1256.0	92.400
1258.0	92.417
1260.0	92.433
1262.0	92.424
1264.0	92.431
1266.0	92.427
1268.0	92.438
1270.0	92.453
1272.0	92.474
1274.0	92.480
1276.0	92.480
1278.0	92.465
1280.0	92.471
1282.0	92.478
1284.0	92.475
1286.0	92.454
1288.0	92.446
1290.0	92.453
1292.0	92.436
1294.0	92.411
1296.0	92.370
1298.0	92.361
1300.0	92.345
1302.0	92.347
1304.0	92.300
1306.0	92.257
1308.0	92.199
1310.0	92.124
1312.0	92.045
1314.0	91.948
1316.0	91.847
1318.0	91.714
1320.0	91.541
1322.0	91.327
1324.0	91.036
1326.0	90.596
1328.0	90.001
1330.0	89.193
1332.0	88.234
1334.0	87.062
1336.0	85.697
1338.0	84.227
1340.0	82.801
1342.0	81.601
1344.0	80.641
1346.0	79.935
1348.0	79.410
1350.0	78.994
1352.0	78.665
1354.0	78.371
1356.0	78.084
1358.0	77.708
1360.0	77.207
1362.0	76.595
1364.0	75.950
1366.0	75.375
1368.0	74.977
1370.0	74.761
1372.0	74.741
1374.0	74.826
1376.0	75.007
1378.0	75.181
1380.0	75.301
1382.0	75.347
1384.0	75.318
1386.0	75.300
1388.0	75.347
1390.0	75.517
1392.0	75.842
1394.0	76.257
1396.0	76.726
1398.0	77.140
1400.0	77.466
1402.0	77.673
1404.0	77.776
1406.0	77.821
1408.0	77.807
1410.0	77.780
1412.0	77.687
1414.0	77.572
1416.0	77.454
1418.0	77.355
1420.0	77.335
1422.0	77.365
1424.0	77.524
1426.0	77.782
1428.0	78.138
1430.0	78.565
1432.0	79.023
1434.0	79.458
1436.0	79.846
1438.0	80.205
1440.0	80.623
1442.0	81.126
1444.0	81.791
1446.0	82.578
1448.0	83.410
1450.0	84.186
1452.0	84.823
1454.0	85.317
1456.0	85.693
1458.0	85.966
1460.0	86.171
1462.0	86.324
1464.0	86.483
1466.0	86.660
1468.0	86.855
1470.0	87.048
1472.0	87.258
1474.0	87.449
1476.0	87.637
1478.0	87.834
1480.0	87.990
1482.0	88.176
1484.0	88.344
1486.0	88.584
1488.0	88.794
1490.0	89.017
1492.0	89.166
1494.0	89.295
1496.0	89.376
1498.0	89.471
1500.0	89.557
1502.0	89.668
1504.0	89.767
1506.0	89.903
1508.0	89.989
1510.0	90.096
1512.0	90.169
1514.0	90.231
1516.0	90.290
1518.0	90.301
1520.0	90.330
1522.0	90.317
1524.0	90.380
1526.0	90.402
1528.0	90.446
1530.0	90.437
1532.0	90.452
1534.0	90.443
1536.0	90.419
1538.0	90.393
1540.0	90.376
1542.0	90.366
1544.0	90.344
1546.0	90.305
1548.0	90.243
1550.0	90.154
1552.0	90.063
1554.0	90.014
1556.0	89.953
1558.0	89.913
1560.0	89.815
1562.0	89.747
1564.0	89.623
1566.0	89.497
1568.0	89.367
1570.0	89.280
1572.0	89.181
1574.0	89.105
1576.0	88.958
1578.0	88.845
1580.0	88.696
1582.0	88.568
1584.0	88.430
1586.0	88.307
1588.0	88.135
1590.0	87.947
1592.0	87.742
1594.0	87.559
1596.0	87.367
1598.0	87.111
1600.0	86.866
1602.0	86.607
1604.0	86.354
1606.0	86.049
1608.0	85.692
1610.0	85.326
1612.0	84.948
1614.0	84.538
1616.0	84.093
1618.0	83.665
1620.0	83.209
1622.0	82.786
1624.0	82.359
1626.0	81.947
1628.0	81.531
1630.0	81.036
1632.0	80.562
1634.0	80.051
1636.0	79.501
1638.0	78.838
1640.0	77.989
1642.0	76.909
1644.0	75.497
1646.0	73.631
1648.0	71.319
1650.0	68.291
1652.0	64.897
1654.0	60.954
1656.0	56.946
1658.0	52.882
1660.0	49.083
1662.0	45.481
1664.0	42.555
1666.0	39.990
1668.0	37.785
1670.0	35.283
1672.0	32.781
1674.0	30.688
1676.0	28.903
1678.0	27.904
1680.0	27.587
1682.0	28.385
1684.0	29.826
1686.0	31.749
1688.0	33.590
1690.0	35.100
1692.0	35.921
1694.0	36.068
1696.0	35.950
1698.0	35.564
1700.0	35.207
1702.0	34.867
1704.0	35.026
1706.0	35.558
1708.0	36.135
1710.0	36.320
1712.0	36.418
1714.0	36.263
1716.0	36.128
1718.0	35.991
1720.0	36.382
1722.0	36.957
1724.0	37.946
1726.0	38.881
1728.0	39.765
1730.0	40.599
1732.0	41.610
1734.0	42.730
1736.0	43.817
1738.0	44.865
1740.0	46.240
1742.0	47.478
1744.0	48.536
1746.0	49.639
1748.0	50.749
1750.0	52.141
1752.0	53.477
1754.0	55.028
1756.0	56.098
1758.0	57.129
1760.0	57.703
1762.0	58.487
1764.0	59.120
1766.0	59.230
1768.0	59.259
1770.0	58.742
1772.0	59.180
1774.0	58.851
1776.0	59.053
1778.0	58.495
1780.0	58.373
1782.0	58.355
1784.0	59.016
1786.0	59.772
1788.0	60.425
1790.0	60.818
1792.0	61.814
1794.0	62.935
1796.0	64.107
1798.0	65.227
1800.0	66.358
1802.0	67.536
1804.0	68.809
1806.0	69.111
1808.0	69.480
1810.0	69.299
1812.0	69.805
1814.0	70.053
1816.0	70.441
1818.0	70.917
1820.0	71.427
1822.0	71.781
1824.0	71.694
1826.0	71.349
1828.0	70.954
1830.0	71.223
1832.0	71.401
1834.0	71.924
1836.0	71.280
1838.0	70.621
1840.0	70.238
1842.0	70.083
1844.0	70.251
1846.0	69.553
1848.0	69.391
1850.0	68.822
1852.0	68.445
1854.0	67.572
1856.0	67.755
1858.0	67.617
1860.0	68.104
1862.0	68.095
1864.0	68.640
1866.0	68.673
1868.0	68.141
1870.0	67.794
1872.0	67.688
1874.0	68.067
1876.0	67.432
1878.0	66.936
1880.0	65.800
1882.0	64.668
1884.0	62.990
1886.0	60.898
1888.0	58.409
1890.0	55.336
1892.0	52.516
1894.0	49.784
1896.0	47.029
1898.0	43.683
1900.0	41.083
1902.0	38.647
1904.0	37.726
1906.0	37.325
1908.0	38.467
1910.0	40.232
1912.0	43.037
1914.0	46.085
1916.0	49.331
1918.0	51.605
1920.0	53.876
1922.0	55.913
1924.0	58.535
1926.0	59.712
1928.0	60.205
1930.0	60.043
1932.0	60.136
1934.0	60.039
1936.0	59.041
1938.0	58.473
1940.0	57.579
1942.0	58.142
1944.0	57.895
1946.0	58.282
1948.0	58.165
1950.0	58.240
1952.0	59.493
1954.0	60.838
1956.0	62.744
1958.0	63.966
1960.0	64.768
1962.0	66.481
1964.0	67.689
1966.0	68.947
1968.0	69.741
1970.0	69.973
1972.0	70.793
1974.0	71.024
1976.0	71.158
1978.0	71.384
1980.0	71.402
1982.0	71.828
1984.0	71.447
1986.0	71.589
1988.0	71.480
1990.0	71.341
1992.0	72.042
1994.0	72.270
1996.0	72.989
1998.0	72.338
2000.0	71.816
2002.0	71.288
2004.0	71.538
2006.0	71.443
2008.0	71.976
2010.0	71.549
2012.0	72.074
2014.0	71.376
2016.0	70.803
2018.0	70.408
2020.0	71.039
2022.0	70.914
2024.0	70.822
2026.0	69.988
2028.0	70.423
2030.0	70.996
2032.0	71.240
2034.0	70.431
2036.0	70.150
2038.0	69.739
2040.0	69.838
2042.0	68.509
2044.0	67.931
2046.0	67.993
2048.0	68.211
2050.0	67.574
2052.0	66.632
2054.0	65.846
2056.0	66.330
2058.0	66.703
2060.0	66.048
2062.0	65.575
2064.0	65.021
2066.0	65.818
2068.0	65.110
2070.0	65.212
2072.0	64.114
2074.0	64.231
2076.0	62.947
2078.0	62.751
2080.0	61.119
2082.0	60.371
2084.0	59.020
2086.0	58.410
2088.0	56.728
2090.0	55.447
2092.0	54.080
2094.0	52.410
2096.0	50.072
2098.0	47.631
2100.0	45.550
2102.0	43.717
2104.0	40.977
2106.0	40.316
2108.0	38.548
2110.0	37.834
2112.0	36.311
2114.0	36.087
2116.0	36.313
2118.0	36.888
2120.0	36.823
2122.0	36.332
2124.0	34.813
2126.0	32.164
2128.0	29.696
2130.0	27.540
2132.0	26.349
2134.0	25.613
2136.0	25.450
2138.0	27.705
2140.0	29.774
2142.0	31.279
2144.0	32.622
2146.0	33.588
2148.0	34.935
2150.0	35.502
2152.0	37.229
2154.0	37.504
2156.0	37.974
2158.0	37.406
2160.0	38.117
2162.0	38.041
2164.0	37.855
2166.0	37.684
2168.0	37.641
2170.0	37.530
2172.0	37.023
2174.0	36.915
2176.0	36.012
2178.0	34.467
2180.0	32.901
2182.0	31.611
2184.0	30.138
2186.0	28.675
2188.0	27.552
2190.0	27.166
2192.0	26.615
2194.0	26.391
2196.0	25.486
2198.0	24.683
2200.0	22.483
2202.0	20.572
2204.0	18.209
2206.0	16.331
2208.0	14.433
2210.0	12.861
2212.0	10.328
2214.0	8.985
2216.0	6.554
2218.0	5.318
2220.0	2.937
2222.0	1.861
2224.0	0.850
2226.0	0.495
2228.0	0.779
2230.0	0.543
2232.0	-0.336
2234.0	-1.583
2236.0	-2.351
2238.0	-0.764
2240.0	-0.308
2242.0	1.144
2244.0	0.883
2246.0	1.374
2248.0	1.095
2250.0	0.878
2252.0	0.625
2254.0	0.176
2256.0	-0.848
2258.0	-0.952
2260.0	-0.046
2262.0	0.739
2264.0	0.601
2266.0	0.056
2268.0	0.315
2270.0	0.142
2272.0	0.318
2274.0	0.552
2276.0	0.313
2278.0	0.355
2280.0	0.460
2282.0	1.333
2284.0	2.035
2286.0	2.175
2288.0	1.916
2290.0	0.911
2292.0	0.517
2294.0	0.815
2296.0	1.747
2298.0	1.517
2300.0	1.159
2302.0	0.004
2304.0	0.074
2306.0	0.300
2308.0	0.968
2310.0	1.024
2312.0	1.835
2314.0	1.419
2316.0	0.304
2318.0	0.156
2320.0	1.903
2322.0	4.280
2324.0	3.981
2326.0	2.893
2328.0	1.578
2330.0	2.476
2332.0	2.968
2334.0	4.269
2336.0	3.078
2338.0	2.338
2340.0	1.127
2342.0	3.095
2344.0	3.458
2346.0	3.952
2348.0	2.222
2350.0	1.174
2352.0	0.011
2354.0	-0.494
2356.0	0.690
2358.0	2.008
2360.0	1.919
2362.0	0.128
2364.0	0.604
2366.0	0.876
2368.0	1.927
2370.0	0.300
2372.0	0.029
2374.0	-0.574
2376.0	-0.421
2378.0	-0.992
2380.0	-0.167
2382.0	-0.014
2384.0	1.451
2386.0	0.619
2388.0	0.992
2390.0	-0.598
2392.0	-0.452
2394.0	-0.979
2396.0	-0.600
2398.0	-1.047
2400.0	-0.254
2402.0	-0.184
2404.0	1.201
2406.0	1.499
2408.0	2.077
2410.0	2.303
2412.0	2.372
2414.0	1.683
2416.0	0.289
2418.0	0.347
2420.0	0.378
2422.0	1.237
2424.0	0.163
2426.0	0.997
2428.0	0.715
2430.0	0.762
2432.0	1.070
2434.0	2.450
2436.0	3.180
2438.0	2.872
2440.0	2.574
2442.0	2.019
2444.0	0.986
2446.0	0.469
2448.0	0.456
2450.0	1.514
2452.0	0.811
2454.0	1.589
2456.0	0.884
2458.0	4.677
2460.0	6.748
2462.0	9.021
2464.0	4.899
2466.0	4.192
2468.0	4.165
2470.0	6.236
2472.0	4.380
2474.0	4.107
2476.0	4.593
2478.0	5.266
2480.0	5.281
2482.0	1.918
2484.0	1.787
2486.0	1.697
2488.0	2.285
2490.0	3.361
2492.0	4.263
2494.0	6.918
2496.0	5.483
2498.0	4.451
2500.0	4.046
