[SUMMARY]
Software Information
Software Name:	UVProbe
Version:	2.43
Mode:	Normal Mode

Data Information
Data is:	Original
Analyst:	
Date/Time:	05/11/2021 11:25:26
Comments:	

Instrument Information
Instrument Name:	SolidSpec3700
Instrument Type:	SolidSpec-3700 Series
Model (S/N):	SolidSpec3700 ( A11085100264CZ )

[METHOD]
[Measurement Properties]
Wavelength Range (nm.):	230,00 to 2500,00
Scan Speed:	Medium
Sampling Interval:	2,0
Auto Sampling Interval:	Disabled
Scan Mode:	Single

[Sample Preparation Properties]
Weight:	
Volume:	
Dilution:	
Path Length:	
Additional Information:	

[Instrument Properties]
Instrument Type:	SolidSpec-3700 Series
Measuring Mode:	Transmittance
Slit Width:	8,0 nm
Time Constant:	1,0 sec.
Source Lamp:	Auto
Light Source Change Wavelength:	295,00 nm
Detector Unit:	Integral Sphere
Detector Change Wavelength:	900,00 nm  1650,00 nm
Grating Change Wavelength:	830,00 nm
S/R Exchange:	Normal
Detector Lock:	Auto
Slit Program:	Normal
Beam Mode:	Double
Stair Correction:	Disable

[Attachment Properties]
Attachment:	X-Y Stage
Sequence File:	Positions.xys

[Operation]
Threshold:	0,0010000
Points:	4
InterPolate:	Disabled
Average:	Disabled

[DATA]
Wavelength	Data
230.0	0.884
232.0	0.853
234.0	0.801
236.0	0.760
238.0	0.725
240.0	0.709
242.0	0.703
244.0	0.692
246.0	0.675
248.0	0.651
250.0	0.634
252.0	0.616
254.0	0.598
256.0	0.576
258.0	0.558
260.0	0.545
262.0	0.538
264.0	0.531
266.0	0.525
268.0	0.523
270.0	0.527
272.0	0.539
274.0	0.578
276.0	0.679
278.0	0.955
280.0	1.554
282.0	2.791
284.0	4.966
286.0	8.383
288.0	13.185
290.0	19.411
292.0	27.027
294.0	35.367
296.0	44.380
298.0	52.310
300.0	59.337
302.0	65.989
304.0	69.398
306.0	71.945
308.0	70.900
310.0	71.247
312.0	72.572
314.0	73.820
316.0	76.202
318.0	76.573
320.0	77.101
322.0	77.472
324.0	78.131
326.0	78.932
328.0	78.981
330.0	79.622
332.0	81.156
334.0	82.487
336.0	82.910
338.0	82.926
340.0	83.215
342.0	83.718
344.0	84.536
346.0	85.274
348.0	85.633
350.0	85.744
352.0	85.708
354.0	85.992
356.0	86.400
358.0	86.771
360.0	87.030
362.0	87.200
364.0	87.318
366.0	87.508
368.0	87.729
370.0	87.868
372.0	88.007
374.0	88.096
376.0	88.242
378.0	88.401
380.0	88.559
382.0	88.651
384.0	88.604
386.0	88.591
388.0	88.656
390.0	88.854
392.0	88.966
394.0	88.967
396.0	88.950
398.0	88.965
400.0	89.078
402.0	89.164
404.0	89.235
406.0	89.266
408.0	89.254
410.0	89.249
412.0	89.247
414.0	89.232
416.0	89.270
418.0	89.352
420.0	89.457
422.0	89.439
424.0	89.445
426.0	89.439
428.0	89.482
430.0	89.522
432.0	89.538
434.0	89.610
436.0	89.621
438.0	89.681
440.0	89.664
442.0	89.682
444.0	89.655
446.0	89.681
448.0	89.698
450.0	89.711
452.0	89.716
454.0	89.739
456.0	89.768
458.0	89.780
460.0	89.800
462.0	89.791
464.0	89.817
466.0	89.835
468.0	89.844
470.0	89.831
472.0	89.818
474.0	89.848
476.0	89.860
478.0	89.890
480.0	89.888
482.0	89.923
484.0	89.924
486.0	89.961
488.0	89.942
490.0	89.949
492.0	89.958
494.0	89.960
496.0	89.976
498.0	89.957
500.0	89.987
502.0	89.960
504.0	89.950
506.0	89.965
508.0	90.030
510.0	90.058
512.0	90.040
514.0	90.006
516.0	90.017
518.0	90.028
520.0	90.077
522.0	90.069
524.0	90.067
526.0	90.043
528.0	90.063
530.0	90.076
532.0	90.053
534.0	90.049
536.0	90.070
538.0	90.118
540.0	90.146
542.0	90.127
544.0	90.136
546.0	90.132
548.0	90.119
550.0	90.127
552.0	90.111
554.0	90.155
556.0	90.147
558.0	90.198
560.0	90.236
562.0	90.191
564.0	90.173
566.0	90.138
568.0	90.179
570.0	90.181
572.0	90.174
574.0	90.146
576.0	90.119
578.0	90.131
580.0	90.165
582.0	90.196
584.0	90.202
586.0	90.206
588.0	90.194
590.0	90.200
592.0	90.171
594.0	90.210
596.0	90.229
598.0	90.287
600.0	90.271
602.0	90.268
604.0	90.236
606.0	90.262
608.0	90.263
610.0	90.327
612.0	90.320
614.0	90.323
616.0	90.285
618.0	90.283
620.0	90.313
622.0	90.327
624.0	90.319
626.0	90.319
628.0	90.328
630.0	90.364
632.0	90.366
634.0	90.385
636.0	90.385
638.0	90.369
640.0	90.337
642.0	90.376
644.0	90.388
646.0	90.394
648.0	90.319
650.0	90.333
652.0	90.377
654.0	90.414
656.0	90.427
658.0	90.440
660.0	90.479
662.0	90.449
664.0	90.422
666.0	90.403
668.0	90.416
670.0	90.412
672.0	90.398
674.0	90.422
676.0	90.447
678.0	90.470
680.0	90.477
682.0	90.438
684.0	90.455
686.0	90.462
688.0	90.453
690.0	90.440
692.0	90.428
694.0	90.475
696.0	90.404
698.0	90.396
700.0	90.430
702.0	90.559
704.0	90.585
706.0	90.557
708.0	90.550
710.0	90.604
712.0	90.660
714.0	90.642
716.0	90.558
718.0	90.490
720.0	90.410
722.0	90.422
724.0	90.489
726.0	90.559
728.0	90.670
730.0	90.599
732.0	90.625
734.0	90.544
736.0	90.628
738.0	90.637
740.0	90.715
742.0	90.710
744.0	90.654
746.0	90.560
748.0	90.486
750.0	90.508
752.0	90.505
754.0	90.519
756.0	90.559
758.0	90.638
760.0	90.666
762.0	90.561
764.0	90.517
766.0	90.521
768.0	90.637
770.0	90.615
772.0	90.616
774.0	90.561
776.0	90.596
778.0	90.568
780.0	90.675
782.0	90.675
784.0	90.625
786.0	90.568
788.0	90.537
790.0	90.621
792.0	90.651
794.0	90.726
796.0	90.710
798.0	90.732
800.0	90.685
802.0	90.781
804.0	90.706
806.0	90.727
808.0	90.637
810.0	90.589
812.0	90.539
814.0	90.454
816.0	90.448
818.0	90.338
820.0	90.477
822.0	90.724
824.0	90.991
826.0	90.894
828.0	90.490
830.0	90.372
832.0	90.452
834.0	90.662
836.0	90.669
838.0	90.695
840.0	90.619
842.0	90.663
844.0	90.612
846.0	90.771
848.0	90.738
850.0	90.764
852.0	90.687
854.0	90.797
856.0	90.755
858.0	90.624
860.0	90.517
862.0	90.506
864.0	90.258
866.0	90.364
868.0	90.360
870.0	90.709
872.0	91.014
874.0	90.904
876.0	90.812
878.0	90.618
880.0	90.200
882.0	89.999
884.0	89.461
886.0	90.253
888.0	90.832
890.0	90.854
892.0	90.991
894.0	91.179
896.0	91.420
898.0	91.183
900.0	90.702
902.0	90.742
904.0	90.633
906.0	90.691
908.0	90.701
910.0	90.708
912.0	90.683
914.0	90.694
916.0	90.712
918.0	90.852
920.0	90.847
922.0	90.805
924.0	90.733
926.0	90.743
928.0	90.820
930.0	90.824
932.0	90.843
934.0	90.823
936.0	90.866
938.0	90.889
940.0	90.882
942.0	90.862
944.0	90.922
946.0	90.935
948.0	90.964
950.0	90.898
952.0	90.895
954.0	90.885
956.0	90.894
958.0	90.925
960.0	90.947
962.0	90.985
964.0	91.009
966.0	91.005
968.0	91.014
970.0	91.008
972.0	91.016
974.0	91.008
976.0	91.005
978.0	90.997
980.0	91.003
982.0	91.031
984.0	91.043
986.0	91.048
988.0	91.038
990.0	91.046
992.0	91.065
994.0	91.072
996.0	91.056
998.0	91.037
1000.0	91.039
1002.0	91.071
1004.0	91.070
1006.0	91.073
1008.0	91.075
1010.0	91.110
1012.0	91.116
1014.0	91.125
1016.0	91.126
1018.0	91.120
1020.0	91.139
1022.0	91.116
1024.0	91.134
1026.0	91.135
1028.0	91.181
1030.0	91.214
1032.0	91.212
1034.0	91.200
1036.0	91.196
1038.0	91.210
1040.0	91.210
1042.0	91.217
1044.0	91.228
1046.0	91.238
1048.0	91.233
1050.0	91.227
1052.0	91.242
1054.0	91.246
1056.0	91.253
1058.0	91.259
1060.0	91.269
1062.0	91.268
1064.0	91.287
1066.0	91.307
1068.0	91.340
1070.0	91.333
1072.0	91.320
1074.0	91.314
1076.0	91.331
1078.0	91.347
1080.0	91.344
1082.0	91.338
1084.0	91.349
1086.0	91.343
1088.0	91.324
1090.0	91.306
1092.0	91.309
1094.0	91.321
1096.0	91.338
1098.0	91.328
1100.0	91.310
1102.0	91.269
1104.0	91.257
1106.0	91.234
1108.0	91.194
1110.0	91.133
1112.0	91.066
1114.0	90.999
1116.0	90.915
1118.0	90.830
1120.0	90.715
1122.0	90.565
1124.0	90.403
1126.0	90.222
1128.0	90.059
1130.0	89.908
1132.0	89.825
1134.0	89.799
1136.0	89.847
1138.0	89.955
1140.0	90.101
1142.0	90.226
1144.0	90.352
1146.0	90.471
1148.0	90.606
1150.0	90.727
1152.0	90.818
1154.0	90.896
1156.0	90.933
1158.0	90.978
1160.0	90.991
1162.0	90.981
1164.0	90.961
1166.0	90.931
1168.0	90.898
1170.0	90.866
1172.0	90.807
1174.0	90.768
1176.0	90.698
1178.0	90.642
1180.0	90.566
1182.0	90.476
1184.0	90.417
1186.0	90.391
1188.0	90.445
1190.0	90.542
1192.0	90.695
1194.0	90.852
1196.0	90.994
1198.0	91.103
1200.0	91.202
1202.0	91.284
1204.0	91.347
1206.0	91.385
1208.0	91.409
1210.0	91.429
1212.0	91.451
1214.0	91.466
1216.0	91.477
1218.0	91.480
1220.0	91.488
1222.0	91.502
1224.0	91.503
1226.0	91.518
1228.0	91.537
1230.0	91.553
1232.0	91.549
1234.0	91.543
1236.0	91.553
1238.0	91.572
1240.0	91.576
1242.0	91.571
1244.0	91.582
1246.0	91.592
1248.0	91.616
1250.0	91.614
1252.0	91.614
1254.0	91.613
1256.0	91.619
1258.0	91.627
1260.0	91.635
1262.0	91.630
1264.0	91.634
1266.0	91.619
1268.0	91.630
1270.0	91.637
1272.0	91.654
1274.0	91.654
1276.0	91.661
1278.0	91.655
1280.0	91.660
1282.0	91.656
1284.0	91.652
1286.0	91.639
1288.0	91.631
1290.0	91.647
1292.0	91.635
1294.0	91.624
1296.0	91.602
1298.0	91.621
1300.0	91.625
1302.0	91.625
1304.0	91.616
1306.0	91.616
1308.0	91.609
1310.0	91.586
1312.0	91.571
1314.0	91.557
1316.0	91.551
1318.0	91.552
1320.0	91.569
1322.0	91.597
1324.0	91.611
1326.0	91.597
1328.0	91.587
1330.0	91.552
1332.0	91.567
1334.0	91.588
1336.0	91.599
1338.0	91.576
1340.0	91.527
1342.0	91.485
1344.0	91.421
1346.0	91.348
1348.0	91.279
1350.0	91.200
1352.0	91.108
1354.0	91.031
1356.0	90.958
1358.0	90.902
1360.0	90.836
1362.0	90.784
1364.0	90.713
1366.0	90.664
1368.0	90.609
1370.0	90.570
1372.0	90.533
1374.0	90.497
1376.0	90.494
1378.0	90.469
1380.0	90.455
1382.0	90.463
1384.0	90.479
1386.0	90.488
1388.0	90.482
1390.0	90.469
1392.0	90.500
1394.0	90.517
1396.0	90.558
1398.0	90.570
1400.0	90.593
1402.0	90.590
1404.0	90.589
1406.0	90.623
1408.0	90.670
1410.0	90.761
1412.0	90.842
1414.0	90.921
1416.0	90.981
1418.0	91.004
1420.0	91.026
1422.0	91.028
1424.0	91.022
1426.0	91.038
1428.0	91.043
1430.0	91.057
1432.0	91.072
1434.0	91.110
1436.0	91.146
1438.0	91.151
1440.0	91.159
1442.0	91.167
1444.0	91.190
1446.0	91.204
1448.0	91.216
1450.0	91.225
1452.0	91.217
1454.0	91.214
1456.0	91.227
1458.0	91.263
1460.0	91.262
1462.0	91.257
1464.0	91.228
1466.0	91.221
1468.0	91.246
1470.0	91.271
1472.0	91.309
1474.0	91.336
1476.0	91.363
1478.0	91.399
1480.0	91.394
1482.0	91.399
1484.0	91.405
1486.0	91.428
1488.0	91.463
1490.0	91.490
1492.0	91.492
1494.0	91.516
1496.0	91.521
1498.0	91.575
1500.0	91.545
1502.0	91.583
1504.0	91.581
1506.0	91.644
1508.0	91.624
1510.0	91.622
1512.0	91.610
1514.0	91.638
1516.0	91.667
1518.0	91.686
1520.0	91.670
1522.0	91.665
1524.0	91.683
1526.0	91.692
1528.0	91.684
1530.0	91.689
1532.0	91.703
1534.0	91.704
1536.0	91.682
1538.0	91.666
1540.0	91.694
1542.0	91.697
1544.0	91.701
1546.0	91.693
1548.0	91.680
1550.0	91.697
1552.0	91.674
1554.0	91.695
1556.0	91.711
1558.0	91.743
1560.0	91.715
1562.0	91.698
1564.0	91.676
1566.0	91.674
1568.0	91.631
1570.0	91.600
1572.0	91.591
1574.0	91.581
1576.0	91.548
1578.0	91.526
1580.0	91.533
1582.0	91.524
1584.0	91.497
1586.0	91.476
1588.0	91.446
1590.0	91.437
1592.0	91.381
1594.0	91.357
1596.0	91.293
1598.0	91.233
1600.0	91.177
1602.0	91.140
1604.0	91.098
1606.0	91.022
1608.0	90.898
1610.0	90.750
1612.0	90.603
1614.0	90.414
1616.0	90.215
1618.0	90.003
1620.0	89.874
1622.0	89.761
1624.0	89.619
1626.0	89.396
1628.0	89.136
1630.0	88.847
1632.0	88.587
1634.0	88.277
1636.0	87.877
1638.0	87.324
1640.0	86.685
1642.0	85.996
1644.0	85.394
1646.0	84.759
1648.0	84.214
1650.0	83.475
1652.0	82.685
1654.0	81.566
1656.0	80.277
1658.0	78.816
1660.0	76.974
1662.0	75.160
1664.0	73.697
1666.0	73.095
1668.0	73.217
1670.0	74.123
1672.0	75.432
1674.0	77.277
1676.0	78.810
1678.0	79.800
1680.0	79.788
1682.0	79.834
1684.0	79.943
1686.0	80.100
1688.0	79.985
1690.0	80.157
1692.0	80.479
1694.0	80.943
1696.0	81.445
1698.0	82.288
1700.0	83.304
1702.0	84.537
1704.0	85.126
1706.0	85.812
1708.0	86.173
1710.0	87.067
1712.0	87.536
1714.0	87.805
1716.0	87.719
1718.0	87.568
1720.0	87.237
1722.0	87.038
1724.0	86.844
1726.0	86.623
1728.0	86.419
1730.0	86.065
1732.0	86.026
1734.0	86.067
1736.0	86.563
1738.0	86.952
1740.0	87.787
1742.0	87.888
1744.0	88.513
1746.0	88.823
1748.0	89.527
1750.0	89.610
1752.0	89.512
1754.0	89.208
1756.0	89.421
1758.0	89.019
1760.0	88.570
1762.0	88.185
1764.0	88.150
1766.0	88.673
1768.0	88.548
1770.0	88.844
1772.0	89.189
1774.0	89.401
1776.0	89.679
1778.0	89.893
1780.0	90.858
1782.0	90.978
1784.0	91.069
1786.0	90.443
1788.0	90.354
1790.0	89.882
1792.0	89.706
1794.0	89.847
1796.0	89.743
1798.0	90.288
1800.0	90.415
1802.0	90.640
1804.0	90.654
1806.0	90.371
1808.0	90.031
1810.0	89.821
1812.0	89.590
1814.0	89.545
1816.0	88.838
1818.0	89.626
1820.0	90.012
1822.0	90.500
1824.0	90.327
1826.0	90.125
1828.0	90.383
1830.0	90.380
1832.0	90.825
1834.0	90.744
1836.0	90.417
1838.0	89.745
1840.0	89.956
1842.0	90.308
1844.0	91.029
1846.0	91.044
1848.0	90.610
1850.0	90.833
1852.0	90.742
1854.0	90.735
1856.0	90.857
1858.0	90.475
1860.0	90.866
1862.0	91.017
1864.0	91.518
1866.0	90.801
1868.0	88.974
1870.0	89.029
1872.0	89.073
1874.0	90.046
1876.0	89.567
1878.0	90.223
1880.0	90.032
1882.0	89.440
1884.0	88.985
1886.0	89.042
1888.0	89.511
1890.0	88.714
1892.0	88.923
1894.0	88.888
1896.0	89.825
1898.0	89.283
1900.0	89.257
1902.0	88.692
1904.0	89.415
1906.0	89.979
1908.0	90.374
1910.0	90.813
1912.0	91.199
1914.0	92.197
1916.0	91.975
1918.0	91.219
1920.0	91.408
1922.0	91.702
1924.0	92.051
1926.0	91.601
1928.0	91.365
1930.0	91.814
1932.0	91.896
1934.0	91.708
1936.0	91.047
1938.0	90.680
1940.0	90.296
1942.0	91.526
1944.0	91.847
1946.0	93.000
1948.0	91.111
1950.0	91.050
1952.0	90.699
1954.0	92.007
1956.0	91.669
1958.0	91.504
1960.0	90.584
1962.0	90.702
1964.0	90.239
1966.0	90.704
1968.0	90.340
1970.0	91.082
1972.0	91.473
1974.0	92.225
1976.0	91.100
1978.0	90.843
1980.0	90.048
1982.0	90.992
1984.0	91.269
1986.0	91.577
1988.0	90.674
1990.0	90.402
1992.0	90.844
1994.0	91.217
1996.0	91.573
1998.0	91.803
2000.0	92.411
2002.0	91.917
2004.0	92.324
2006.0	91.624
2008.0	91.171
2010.0	90.298
2012.0	91.149
2014.0	91.230
2016.0	90.374
2018.0	89.357
2020.0	90.376
2022.0	90.086
2024.0	90.881
2026.0	90.222
2028.0	91.131
2030.0	90.828
2032.0	91.184
2034.0	91.326
2036.0	91.173
2038.0	89.787
2040.0	88.653
2042.0	87.428
2044.0	87.498
2046.0	87.727
2048.0	89.340
2050.0	88.738
2052.0	88.013
2054.0	85.947
2056.0	85.881
2058.0	86.345
2060.0	86.295
2062.0	86.292
2064.0	85.269
2066.0	86.125
2068.0	86.427
2070.0	86.915
2072.0	86.592
2074.0	86.971
2076.0	86.463
2078.0	86.347
2080.0	85.761
2082.0	86.515
2084.0	87.597
2086.0	87.798
2088.0	87.586
2090.0	86.757
2092.0	87.708
2094.0	88.391
2096.0	86.892
2098.0	85.439
2100.0	84.580
2102.0	84.931
2104.0	83.721
2106.0	83.454
2108.0	82.452
2110.0	82.197
2112.0	81.596
2114.0	81.310
2116.0	80.408
2118.0	78.443
2120.0	76.712
2122.0	76.329
2124.0	74.187
2126.0	71.907
2128.0	68.636
2130.0	67.113
2132.0	66.417
2134.0	65.111
2136.0	65.861
2138.0	66.886
2140.0	69.003
2142.0	68.793
2144.0	68.646
2146.0	68.170
2148.0	68.506
2150.0	66.926
2152.0	66.906
2154.0	65.725
2156.0	66.778
2158.0	67.263
2160.0	68.865
2162.0	69.893
2164.0	70.063
2166.0	73.231
2168.0	75.632
2170.0	77.693
2172.0	76.023
2174.0	77.104
2176.0	77.919
2178.0	78.084
2180.0	76.103
2182.0	75.560
2184.0	75.940
2186.0	77.181
2188.0	77.141
2190.0	77.204
2192.0	78.695
2194.0	80.184
2196.0	83.208
2198.0	83.340
2200.0	82.151
2202.0	82.507
2204.0	82.097
2206.0	82.827
2208.0	81.254
2210.0	82.863
2212.0	83.644
2214.0	82.996
2216.0	81.743
2218.0	81.041
2220.0	82.040
2222.0	81.825
2224.0	81.136
2226.0	80.384
2228.0	78.690
2230.0	78.003
2232.0	77.197
2234.0	77.473
2236.0	77.505
2238.0	77.193
2240.0	77.429
2242.0	77.358
2244.0	77.032
2246.0	76.780
2248.0	76.467
2250.0	75.468
2252.0	75.102
2254.0	73.286
2256.0	72.290
2258.0	68.153
2260.0	65.558
2262.0	62.624
2264.0	61.803
2266.0	61.087
2268.0	61.826
2270.0	62.848
2272.0	63.661
2274.0	63.658
2276.0	63.277
2278.0	63.586
2280.0	63.454
2282.0	62.043
2284.0	60.489
2286.0	59.423
2288.0	59.583
2290.0	59.855
2292.0	59.994
2294.0	59.455
2296.0	58.241
2298.0	56.312
2300.0	55.773
2302.0	55.241
2304.0	54.812
2306.0	53.334
2308.0	51.999
2310.0	51.664
2312.0	53.210
2314.0	55.421
2316.0	57.224
2318.0	58.614
2320.0	56.881
2322.0	56.652
2324.0	55.146
2326.0	58.597
2328.0	60.054
2330.0	58.957
2332.0	56.868
2334.0	55.932
2336.0	58.738
2338.0	59.878
2340.0	60.241
2342.0	59.695
2344.0	60.129
2346.0	62.796
2348.0	62.705
2350.0	62.345
2352.0	59.793
2354.0	62.440
2356.0	66.010
2358.0	67.786
2360.0	67.319
2362.0	66.373
2364.0	63.893
2366.0	63.130
2368.0	61.418
2370.0	62.992
2372.0	61.398
2374.0	62.412
2376.0	61.532
2378.0	61.195
2380.0	59.639
2382.0	60.788
2384.0	61.742
2386.0	61.618
2388.0	59.059
2390.0	56.100
2392.0	57.054
2394.0	57.828
2396.0	59.056
2398.0	57.715
2400.0	60.273
2402.0	61.047
2404.0	62.852
2406.0	60.925
2408.0	61.770
2410.0	62.215
2412.0	61.925
2414.0	62.568
2416.0	63.709
2418.0	62.325
2420.0	63.898
2422.0	60.011
2424.0	62.077
2426.0	61.563
2428.0	63.228
2430.0	61.068
2432.0	60.172
2434.0	57.872
2436.0	57.495
2438.0	55.573
2440.0	52.736
2442.0	46.735
2444.0	42.620
2446.0	39.280
2448.0	36.588
2450.0	29.891
2452.0	26.494
2454.0	29.876
2456.0	33.012
2458.0	38.294
2460.0	40.084
2462.0	45.767
2464.0	49.428
2466.0	56.844
2468.0	57.550
2470.0	61.395
2472.0	56.924
2474.0	60.555
2476.0	59.044
2478.0	63.360
2480.0	61.962
2482.0	58.820
2484.0	58.886
2486.0	61.460
2488.0	65.300
2490.0	62.447
2492.0	59.414
2494.0	58.107
2496.0	62.811
2498.0	62.972
2500.0	63.255
